AP01_010725.csv;;Schick;30.07.2025 13:39:23;GENESYS 10S UV-Vis;2L9S114206;4.005
nm;A
190;1,5217
191;1,3345
192;1,1561
193;1,0005
194;0,8746
195;0,7716
196;0,705
197;0,6492
198;0,591
199;0,5477
200;0,5147
201;0,4877
202;0,4656
203;0,4457
204;0,4284
205;0,4142
206;0,4007
207;0,3884
208;0,3782
209;0,3682
210;0,3591
211;0,3497
212;0,3422
213;0,3342
214;0,3265
215;0,3184
216;0,3104
217;0,3036
218;0,2967
219;0,2894
220;0,283
221;0,2771
222;0,2712
223;0,2655
224;0,2603
225;0,2548
226;0,2493
227;0,2453
228;0,2412
229;0,2368
230;0,2323
231;0,2273
232;0,2233
233;0,2199
234;0,216
235;0,2127
236;0,2095
237;0,2063
238;0,203
239;0,2003
240;0,1976
241;0,1955
242;0,1932
243;0,1905
244;0,1883
245;0,1865
246;0,1848
247;0,1831
248;0,1812
249;0,1795
250;0,1777
251;0,1761
252;0,1748
253;0,173
254;0,1711
255;0,1696
256;0,1679
257;0,1662
258;0,1648
259;0,1635
260;0,1615
261;0,16
262;0,1581
263;0,1561
264;0,1544
265;0,1526
266;0,1502
267;0,1484
268;0,1462
269;0,1445
270;0,1428
271;0,1409
272;0,1389
273;0,1369
274;0,1348
275;0,1328
276;0,1311
277;0,1289
278;0,1266
279;0,1248
280;0,1229
281;0,1211
282;0,1192
283;0,1173
284;0,1153
285;0,1136
286;0,1119
287;0,1099
288;0,108
289;0,1064
290;0,1044
291;0,1027
292;0,101
293;0,0995
294;0,0978
295;0,0964
296;0,0949
297;0,0935
298;0,092
299;0,0905
300;0,0891
301;0,0879
302;0,0862
303;0,0848
304;0,0836
305;0,0821
306;0,0808
307;0,0796
308;0,0784
309;0,0773
310;0,076
311;0,0751
312;0,0733
313;0,0726
314;0,0716
315;0,0708
316;0,0697
317;0,0685
318;0,0676
319;0,0667
320;0,0654
321;0,0644
322;0,0634
323;0,0624
324;0,0615
325;0,0603
326;0,0596
327;0,0585
328;0,0578
329;0,057
330;0,0562
331;0,0555
332;0,0547
333;0,0537
334;0,053
335;0,0523
336;0,0514
337;0,0506
338;0,0501
339;0,049
340;0,0484
341;0,0478
342;0,0473
343;0,0464
344;0,0459
345;0,0453
346;0,0446
347;0,0435
348;0,0431
349;0,0421
350;0,0417
351;0,0412
352;0,0402
353;0,0399
354;0,0393
355;0,0386
356;0,0379
357;0,0375
358;0,0368
359;0,0361
360;0,0354
361;0,035
362;0,0347
363;0,034
364;0,033
365;0,0326
366;0,0324
367;0,0314
368;0,0307
369;0,0306
370;0,0299
371;0,0295
372;0,0288
373;0,0282
374;0,0277
375;0,0272
376;0,0268
377;0,0266
378;0,0261
379;0,0256
380;0,0252
381;0,0247
382;0,024
383;0,0239
384;0,0235
385;0,023
386;0,0226
387;0,0222
388;0,0219
389;0,0214
390;0,0209
391;0,0207
392;0,0204
393;0,0199
394;0,0198
395;0,0191
396;0,0188
397;0,0183
398;0,0182
399;0,0179
400;0,0176
401;0,0172
402;0,0168
403;0,0166
404;0,0166
405;0,0163
406;0,0159
407;0,0157
408;0,0155
409;0,0152
410;0,0149
411;0,0143
412;0,0144
413;0,0141
414;0,0137
415;0,0138
416;0,0135
417;0,0133
418;0,0132
419;0,0128
420;0,0127
421;0,0124
422;0,0124
423;0,0121
424;0,012
425;0,0119
426;0,0116
427;0,0114
428;0,0112
429;0,0109
430;0,011
431;0,0105
432;0,0105
433;0,0102
434;0,0098
435;0,01
436;0,0099
437;0,0097
438;0,0095
439;0,0094
440;0,0093
441;0,0092
442;0,0089
443;0,0088
444;0,0087
445;0,0086
446;0,0084
447;0,0083
448;0,0082
449;0,0082
450;0,0077
451;0,0077
452;0,0076
453;0,0077
454;0,0073
455;0,0072
456;0,0072
457;0,0069
458;0,0071
459;0,0068
460;0,007
461;0,0069
462;0,0067
463;0,0067
464;0,0066
465;0,0068
466;0,0064
467;0,0062
468;0,0062
469;0,006
470;0,0061
471;0,0061
472;0,0059
473;0,0061
474;0,0059
475;0,0056
476;0,0058
477;0,0057
478;0,0056
479;0,0054
480;0,0056
481;0,0054
482;0,0054
483;0,0046
484;0,005
485;0,0053
486;0,0052
487;0,005
488;0,0048
489;0,0048
490;0,005
491;0,0048
492;0,0048
493;0,0046
494;0,0046
495;0,0043
496;0,0045
497;0,0045
498;0,0044
499;0,0046
500;0,0046
501;0,0043
502;0,004
503;0,0041
504;0,004
505;0,0043
506;0,0041
507;0,0042
508;0,004
509;0,0037
510;0,0039
511;0,0037
512;0,0036
513;0,0036
514;0,0037
515;0,0035
516;0,0037
517;0,0034
518;0,0036
519;0,0035
520;0,0035
521;0,0033
522;0,0035
523;0,0033
524;0,0033
525;0,0033
526;0,0028
527;0,003
528;0,0033
529;0,0033
530;0,003
531;0,0029
532;0,0028
533;0,003
534;0,0029
535;0,0028
536;0,0029
537;0,0027
538;0,0028
539;0,0029
540;0,0027
541;0,0026
542;0,0027
543;0,0022
544;0,0025
545;0,0025
546;0,0023
547;0,0026
548;0,0025
549;0,0023
550;0,0023
551;0,0022
552;0,0025
553;0,0026
554;0,0023
555;0,0021
556;0,0023
557;0,0021
558;0,0015
559;0,0021
560;0,0017
561;0,0019
562;0,0019
563;0,0017
564;0,0015
565;0,0019
566;0,0018
567;0,002
568;0,0019
569;0,002
570;0,0015
571;0,0014
572;0,0014
573;0,002
574;0,0015
575;0,0016
576;0,002
577;0,0016
578;0,0013
579;0,0015
580;0,0015
581;0,0016
582;0,0016
583;0,0012
584;0,0021
585;0,0014
586;0,0012
587;0,0016
588;0,0011
589;0,0013
590;0,0015
591;0,0012
592;0,0016
593;0,0017
594;0,001
595;0,0014
596;0,0009
597;0,001
598;0,0013
599;0,0013
600;0,0011
601;0,001
602;0,0013
603;0,001
604;0,0008
605;0,0011
606;0,0012
607;0,0013
608;0,001
609;0,0012
610;0,0015
611;0,0017
612;0,0008
613;0,0009
614;0,002
615;0,0015
616;0,0007
617;0,0009
618;0,0015
619;0,0004
620;0,0014
621;0,0007
622;0,0015
623;0,0014
624;0,0015
625;0,0009
626;0,001
627;0,0008
628;0,0013
629;0,0013
630;0,0006
631;0,0009
632;0,0014
633;0,0012
634;0,0012
635;0,0011
636;0,001
637;0,0015
638;0,0005
639;0,0012
640;0,0017
641;0,001
642;0,0003
643;0,0011
644;0,0007
645;0,0014
646;0,0004
647;0,0013
648;0,0006
649;0,001
650;0,0005
651;0,001
652;0,0011
653;0,0012
654;0,001
655;0,0012
656;0,0024
657;0,0002
658;0,0017
659;0,0011
660;0,0014
661;0,0016
662;0,001
663;0,0016
664;0,0012
665;0
666;0,0013
667;0,002
668;0,0003
669;0,0011
670;0,0016
671;0,0005
672;0,0011
673;0,0008
674;0,0009
675;0,0013
676;0,0014
677;0,0014
678;0,0013
679;0,0009
680;0,0008
681;0,0012
682;0,0013
683;0,001
684;0,001
685;0,0008
686;0,0008
687;0,0012
688;0,0007
689;0,0012
690;0,0008
691;0,0005
692;0,001
693;0,0011
694;0,0015
695;0,0009
696;0,0011
697;0,0013
698;0,0005
699;0,0012
700;0,0006
701;0,001
702;0,0011
703;0,001
704;0,0003
705;0,0007
706;0,0008
707;0,0015
708;0,0008
709;0
710;0,0004
711;0,0001
712;0,0009
713;0,0018
714;0,001
715;0,0013
716;0,0014
717;0,0007
718;0,0009
719;0,0007
720;0,0001
721;0,0006
722;0,0001
723;0,0011
724;0,0011
725;0,0003
726;0,0005
727;0,0007
728;0,0004
729;0,001
730;0,0005
731;0,0007
732;0,0001
733;0,0002
734;0,0007
735;0,0008
736;0,0004
737;0
738;-0,0009
739;0,0005
740;0,001
741;0,0011
742;-0,0002
743;0,0006
744;-0,0007
745;0,0006
746;-0,0006
747;-0,0002
748;-0,0006
749;0,0013
750;0,0005
751;0,0002
752;-0,0003
753;-0,0003
754;0,0009
755;0,0006
756;0,0006
757;0,0003
758;0,0009
759;-0,0001
760;0,0005
761;0,0005
762;0,0006
763;0,0001
764;0,0006
765;0,0005
766;-0,0002
767;0
768;0,0003
769;0,0002
770;-0,0002
771;-0,0006
772;0,0003
773;0,0003
774;0,0002
775;-0,0004
776;0,0002
777;0,0003
778;0,0005
779;0,0003
780;0,0011
781;-0,0002
782;0,0014
783;-0,0002
784;-0,0001
785;0,0007
786;0
787;-0,0001
788;0,0005
789;0,0004
790;0,0002
791;0
792;-0,0002
793;0,0002
794;-0,0002
795;0,0005
796;0
797;0,0002
798;0,0008
799;0,0004
800;0,0006
801;-0,0007
802;0,0002
803;0,0003
804;0,0014
805;0,0001
806;0,0009
807;0,0001
808;0,0009
809;-0,0003
810;0,0004
811;0
812;0,0002
813;0,0001
814;-0,0003
815;0,0006
816;0,0002
817;0,0003
818;-0,0007
819;0,0004
820;0,0002
821;0,0002
822;0,0007
823;0,0004
824;0,0002
825;0,0005
826;0,0004
827;0,0009
828;0,0004
829;0,0007
830;0,0011
831;0,0012
832;0
833;0,0008
834;0,0001
835;-0,0001
836;0,0002
837;-0,0001
838;0,0011
839;0,0003
840;0,0001
841;0,0002
842;-0,0008
843;-0,0001
844;0,0001
845;0,0001
846;-0,0012
847;0,0002
848;0,0005
849;0,0015
850;-0,0002
851;-0,0003
852;0,0003
853;0,0012
854;0
855;-0,0005
856;0,0012
857;-0,0002
858;0,0016
859;0,0007
860;-0,0001
861;-0,0001
862;-0,0008
863;0,0009
864;0,0002
865;0,0008
866;0,0004
867;-0,0001
868;0,0014
869;-0,0002
870;0
871;0,0003
872;0
873;0,0001
874;-0,0004
875;0,001
876;0
877;0,0007
878;-0,0001
879;0,0001
880;0,0005
881;0,0006
882;0,0007
883;0,0003
884;0,0005
885;0,0005
886;0,0005
887;0,0007
888;0,0005
889;0,0002
890;0,0002
891;0,0006
892;0,0007
893;0,001
894;0,0014
895;0,0003
896;0,0003
897;0,0003
898;0,0003
899;0,0011
900;0,0003
901;0,0011
902;0,0011
903;0,0003
904;0,0008
905;0,0006
906;0,0005
907;0
908;0,0004
909;0,001
910;0,0007
911;0,0005
912;0,0002
913;0,0001
914;0,001
915;0,0006
916;0,0006
917;0,0005
918;0,0004
919;0,0002
920;0
921;0,0003
922;0,0007
923;0,0006
924;-0,0007
925;-0,0007
926;0,001
927;0,0006
928;0,0007
929;0,0006
930;-0,0001
931;0,0003
932;-0,0008
933;0,0004
934;0,0006
935;0,0001
936;0,0005
937;0,0001
938;0,0003
939;0,0009
940;0
941;0,0006
942;0,0001
943;0,0005
944;-0,0003
945;0,0003
946;0,0007
947;-0,0004
948;-0,0001
949;0,0003
950;0,0007
951;0,0005
952;0
953;0,0004
954;0,0002
955;-0,0003
956;0,0002
957;-0,0008
958;-0,0001
959;-0,0008
960;-0,0002
961;-0,0016
962;-0,0005
963;-0,0004
964;-0,0007
965;0,0002
966;0
967;-0,0007
968;-0,0001
969;-0,0001
970;-0,0002
971;-0,0001
972;-0,0001
973;-0,0002
974;-0,0003
975;-0,0004
976;0,0001
977;0,0001
978;0,0001
979;-0,0003
980;0,0003
981;0
982;0,0002
983;0,0003
984;-0,0008
985;-0,0006
986;-0,0003
987;-0,001
988;0,0001
989;-0,0004
990;-0,0004
991;-0,0007
992;0,0002
993;0,0005
994;0
995;0,0001
996;0,0002
997;0,0004
998;-0,0005
999;-0,0012
1000;-0,0003
1001;-0,0002
1002;-0,0004
1003;0,0003
1004;-0,0001
1005;0,0006
1006;-0,0014
1007;0,0004
1008;-0,0008
1009;-0,0005
1010;-0,0008
1011;-0,0001
1012;0
1013;0,0002
1014;-0,0005
1015;-0,0004
1016;-0,0009
1017;-0,0006
1018;-0,0001
1019;-0,0006
1020;-0,0014
1021;-0,0009
1022;0,0011
1023;-0,0005
1024;-0,0002
1025;-0,0022
1026;0,0003
1027;-0,0006
1028;-0,0009
1029;-0,0009
1030;-0,0012
1031;-0,001
1032;-0,0009
1033;-0,0015
1034;-0,0022
1035;-0,0002
1036;-0,0006
1037;-0,0027
1038;0,0003
1039;-0,0009
1040;0,0007
1041;-0,0007
1042;0,0002
1043;-0,0007
1044;-0,0009
1045;-0,002
1046;0,001
1047;-0,0016
1048;-0,0006
1049;-0,0036
1050;0,0012
1051;-0,002
1052;-0,0025
1053;-0,001
1054;-0,001
1055;-0,0008
1056;0,0037
1057;-0,0035
1058;-0,0007
1059;-0,002
1060;-0,0005
1061;-0,0005
1062;-0,0006
1063;0,0008
1064;-0,0012
1065;-0,0004
1066;-0,0037
1067;-0,0024
1068;-0,0034
1069;-0,003
1070;-0,0012
1071;-0,0026
1072;0,0015
1073;-0,0078
1074;-0,004
1075;0,002
1076;-0,0017
1077;-0,0051
1078;0,0001
1079;-0,0009
1080;-0,0042
1081;0,0009
1082;-0,0043
1083;-0,0035
1084;0,0013
1085;0,0013
1086;-0,0005
1087;-0,002
1088;0,0003
1089;-0,0003
1090;-0,0013
1091;-0,0015
1092;0,0002
1093;-0,0054
1094;-0,0062
1095;-0,0065
1096;-0,0064
1097;-0,0053
1098;-0,0051
1099;-0,0102
1100;-0,0033
