AP02_2705.csv;;Schick;17.06.2025 11:08:25;GENESYS 10S UV-Vis;2L9S114206;4.005
nm;A
190;1,5964
191;1,3993
192;1,2192
193;1,0343
194;0,8864
195;0,7753
196;0,6834
197;0,6203
198;0,5641
199;0,5077
200;0,4685
201;0,4396
202;0,4128
203;0,3921
204;0,3746
205;0,3583
206;0,3458
207;0,3338
208;0,3236
209;0,3149
210;0,3069
211;0,2989
212;0,292
213;0,2861
214;0,2793
215;0,2728
216;0,2664
217;0,2605
218;0,2551
219;0,2496
220;0,2443
221;0,2395
222;0,2347
223;0,2302
224;0,2261
225;0,2218
226;0,2178
227;0,214
228;0,2111
229;0,2078
230;0,204
231;0,2005
232;0,1971
233;0,1944
234;0,1913
235;0,1887
236;0,1863
237;0,1839
238;0,1814
239;0,179
240;0,1768
241;0,1751
242;0,1735
243;0,1714
244;0,1694
245;0,168
246;0,1668
247;0,1655
248;0,1643
249;0,1627
250;0,1613
251;0,1602
252;0,159
253;0,1578
254;0,1566
255;0,1551
256;0,1539
257;0,1525
258;0,1514
259;0,1505
260;0,1494
261;0,1479
262;0,1467
263;0,1453
264;0,1437
265;0,1424
266;0,141
267;0,1393
268;0,1378
269;0,1363
270;0,1352
271;0,1339
272;0,1324
273;0,1309
274;0,1293
275;0,1279
276;0,1265
277;0,125
278;0,1234
279;0,1218
280;0,1205
281;0,1191
282;0,1177
283;0,1162
284;0,1148
285;0,1135
286;0,1122
287;0,1107
288;0,1092
289;0,1078
290;0,1065
291;0,105
292;0,1036
293;0,1023
294;0,1011
295;0,0998
296;0,0986
297;0,0976
298;0,0964
299;0,095
300;0,094
301;0,093
302;0,0916
303;0,0906
304;0,0894
305;0,0883
306;0,0874
307;0,0865
308;0,0855
309;0,0846
310;0,0837
311;0,083
312;0,0816
313;0,0809
314;0,0802
315;0,0796
316;0,0787
317;0,0777
318;0,0771
319;0,0763
320;0,0755
321;0,0747
322;0,0738
323;0,0733
324;0,0725
325;0,0717
326;0,0708
327;0,0702
328;0,0695
329;0,0687
330;0,0681
331;0,0675
332;0,0666
333;0,066
334;0,0656
335;0,0647
336;0,0643
337;0,0635
338;0,0629
339;0,0625
340;0,0617
341;0,0609
342;0,0603
343;0,0598
344;0,0594
345;0,0588
346;0,0583
347;0,0576
348;0,0569
349;0,0564
350;0,0556
351;0,0553
352;0,0547
353;0,0542
354;0,0538
355;0,0529
356;0,0525
357;0,052
358;0,0516
359;0,051
360;0,0505
361;0,0499
362;0,0495
363;0,0488
364;0,0482
365;0,0477
366;0,0471
367;0,0466
368;0,0462
369;0,0456
370;0,045
371;0,0447
372;0,044
373;0,0434
374;0,0429
375;0,0425
376;0,0419
377;0,0416
378;0,0412
379;0,0404
380;0,0401
381;0,0398
382;0,039
383;0,0384
384;0,0382
385;0,0375
386;0,0372
387;0,0366
388;0,0363
389;0,0358
390;0,0354
391;0,0348
392;0,0348
393;0,034
394;0,0338
395;0,0332
396;0,0329
397;0,0324
398;0,032
399;0,0317
400;0,0312
401;0,031
402;0,0305
403;0,0302
404;0,0297
405;0,0294
406;0,029
407;0,0289
408;0,0286
409;0,0281
410;0,0279
411;0,0276
412;0,0273
413;0,027
414;0,0267
415;0,0263
416;0,0261
417;0,0258
418;0,0255
419;0,0254
420;0,025
421;0,0248
422;0,0246
423;0,0241
424;0,024
425;0,0237
426;0,0235
427;0,0231
428;0,0229
429;0,0227
430;0,0223
431;0,022
432;0,0219
433;0,0216
434;0,0212
435;0,021
436;0,0208
437;0,0205
438;0,0204
439;0,0201
440;0,0199
441;0,0198
442;0,0196
443;0,0191
444;0,0191
445;0,0189
446;0,0187
447;0,0186
448;0,0185
449;0,0181
450;0,018
451;0,0177
452;0,0178
453;0,0176
454;0,0173
455;0,0173
456;0,0169
457;0,0167
458;0,0168
459;0,0166
460;0,0164
461;0,0164
462;0,0162
463;0,016
464;0,016
465;0,0159
466;0,0157
467;0,0154
468;0,0154
469;0,0153
470;0,0151
471;0,015
472;0,0148
473;0,0147
474;0,0146
475;0,0144
476;0,0142
477;0,0143
478;0,0142
479;0,0141
480;0,0137
481;0,0138
482;0,0137
483;0,013
484;0,0134
485;0,0134
486;0,0133
487;0,0131
488;0,0131
489;0,0129
490;0,0128
491;0,0127
492;0,0125
493;0,0124
494;0,0124
495;0,0125
496;0,0121
497;0,0121
498;0,012
499;0,0119
500;0,0118
501;0,0116
502;0,0115
503;0,0111
504;0,0113
505;0,0113
506;0,0115
507;0,011
508;0,0109
509;0,0107
510;0,0109
511;0,011
512;0,0106
513;0,0103
514;0,0108
515;0,0103
516;0,0102
517;0,0101
518;0,0098
519;0,0102
520;0,01
521;0,0099
522;0,0097
523;0,0097
524;0,0095
525;0,0096
526;0,0095
527;0,0094
528;0,0093
529;0,0095
530;0,0092
531;0,0094
532;0,009
533;0,0093
534;0,009
535;0,0086
536;0,0091
537;0,0088
538;0,0089
539;0,0084
540;0,0086
541;0,0085
542;0,0086
543;0,0081
544;0,0084
545;0,0085
546;0,0078
547;0,0081
548;0,008
549;0,008
550;0,0081
551;0,0081
552;0,0078
553;0,0078
554;0,0079
555;0,0078
556;0,0078
557;0,0076
558;0,0076
559;0,0076
560;0,0073
561;0,0074
562;0,0074
563;0,0071
564;0,0073
565;0,0072
566;0,0074
567;0,0073
568;0,0066
569;0,0069
570;0,0071
571;0,0067
572;0,007
573;0,0066
574;0,0066
575;0,0072
576;0,0068
577;0,0067
578;0,0068
579;0,007
580;0,0066
581;0,0065
582;0,0065
583;0,0064
584;0,0063
585;0,0059
586;0,0064
587;0,0066
588;0,0059
589;0,0061
590;0,006
591;0,0062
592;0,0065
593;0,0062
594;0,006
595;0,006
596;0,0055
597;0,0061
598;0,0064
599;0,0061
600;0,0062
601;0,0059
602;0,0056
603;0,0059
604;0,0062
605;0,0058
606;0,0056
607;0,0062
608;0,0055
609;0,0056
610;0,0059
611;0,0056
612;0,0054
613;0,006
614;0,0052
615;0,0055
616;0,0052
617;0,0054
618;0,0058
619;0,0054
620;0,0057
621;0,0045
622;0,0052
623;0,0055
624;0,0049
625;0,0056
626;0,0056
627;0,0049
628;0,0052
629;0,0051
630;0,0053
631;0,0052
632;0,005
633;0,0046
634;0,0046
635;0,0049
636;0,0047
637;0,0055
638;0,0049
639;0,0046
640;0,0047
641;0,0043
642;0,0047
643;0,0052
644;0,005
645;0,0048
646;0,0052
647;0,0053
648;0,0049
649;0,0045
650;0,0037
651;0,0049
652;0,0047
653;0,0046
654;0,005
655;0,0039
656;0,0051
657;0,0051
658;0,005
659;0,0051
660;0,0041
661;0,0041
662;0,0047
663;0,0049
664;0,0047
665;0,0029
666;0,0041
667;0,005
668;0,0041
669;0,0041
670;0,0047
671;0,0039
672;0,0043
673;0,0046
674;0,004
675;0,0044
676;0,0044
677;0,0045
678;0,0043
679;0,0043
680;0,0042
681;0,0042
682;0,0045
683;0,0046
684;0,0047
685;0,0045
686;0,004
687;0,0043
688;0,0045
689;0,0048
690;0,0041
691;0,0047
692;0,0043
693;0,0041
694;0,0044
695;0,0039
696;0,0046
697;0,0048
698;0,0037
699;0,0042
700;0,0042
701;0,004
702;0,0039
703;0,0037
704;0,0041
705;0,0037
706;0,0036
707;0,0042
708;0,004
709;0,004
710;0,0041
711;0,0036
712;0,0041
713;0,0038
714;0,0038
715;0,0037
716;0,004
717;0,004
718;0,0039
719;0,0036
720;0,0029
721;0,0046
722;0,0039
723;0,0036
724;0,0037
725;0,0041
726;0,0032
727;0,0039
728;0,0038
729;0,0039
730;0,0034
731;0,0041
732;0,0033
733;0,0037
734;0,0033
735;0,0036
736;0,0042
737;0,0035
738;0,0029
739;0,0032
740;0,0045
741;0,0028
742;0,003
743;0,0039
744;0,0032
745;0,0045
746;0,0028
747;0,0027
748;0,0032
749;0,0015
750;0,0031
751;0,0032
752;0,0022
753;0,0026
754;0,0029
755;0,0026
756;0,0035
757;0,0031
758;0,003
759;0,004
760;0,0033
761;0,0035
762;0,003
763;0,0021
764;0,0027
765;0,0029
766;0,0027
767;0,0035
768;0,0035
769;0,003
770;0,0026
771;0,0025
772;0,0029
773;0,0018
774;0,0032
775;0,0033
776;0,0026
777;0,0025
778;0,003
779;0,0026
780;0,0026
781;0,0021
782;0,0029
783;0,0025
784;0,0026
785;0,0024
786;0,0033
787;0,0028
788;0,0027
789;0,0023
790;0,0024
791;0,0014
792;0,0022
793;0,0027
794;0,0035
795;0,0034
796;0,0023
797;0,0027
798;0,0027
799;0,0028
800;0,002
801;0,0012
802;0,0018
803;0,0026
804;0,0023
805;0,0029
806;0,003
807;0,0023
808;0,0032
809;0,0016
810;0,0022
811;0,003
812;0,0026
813;0,0029
814;0,0018
815;0,0021
816;0,0023
817;0,0011
818;0,0025
819;0,0029
820;0,002
821;0,0016
822;0,0018
823;0,0025
824;0,0023
825;0,0026
826;0,0026
827;0,0024
828;0,0021
829;0,0025
830;0,0026
831;0,0017
832;0,0022
833;0,0022
834;0,0021
835;0,0019
836;0,0026
837;0,0025
838;0,0018
839;0,0018
840;0,0011
841;0,0032
842;0,0024
843;0,0015
844;0,0015
845;0,0009
846;0,0026
847;0,0019
848;0,0019
849;0,001
850;0,0004
851;0,002
852;0,0018
853;0,0011
854;0,0013
855;0,0017
856;0,0013
857;0,0015
858;0,0014
859;0,0021
860;-0,0001
861;0,0023
862;0,001
863;0,0017
864;0,0018
865;0,0021
866;0,0024
867;0,0014
868;0,0025
869;0,0021
870;0,0019
871;0,0021
872;0,0017
873;0,0018
874;0,0017
875;0,0011
876;0,0022
877;0,0017
878;0,0021
879;0,0011
880;0,0015
881;0,0016
882;0,0022
883;0,0024
884;0,0023
885;0,0022
886;0,0022
887;0,002
888;0,0017
889;0,0021
890;0,0014
891;0,0015
892;0,002
893;0,0029
894;0,002
895;0,0013
896;0,0015
897;0,0021
898;0,0023
899;0,0022
900;0,002
901;0,0023
902;0,0019
903;0,0017
904;0,002
905;0,0015
906;0,0021
907;0,0018
908;0,0017
909;0,0016
910;0,0015
911;0,0019
912;0,0025
913;0,0018
914;0,0017
915;0,0021
916;0,0017
917;0,0018
918;0,0022
919;0,0029
920;0,0022
921;0,0022
922;0,0031
923;0,002
924;0,0034
925;0,0026
926;0,0035
927;0,0028
928;0,0025
929;0,0025
930;0,0021
931;0,0031
932;0,0028
933;0,0034
934;0,0028
935;0,002
936;0,003
937;0,0026
938;0,0026
939;0,0024
940;0,0023
941;0,0025
942;0,0025
943;0,0025
944;0,0016
945;0,0025
946;0,0021
947;0,0021
948;0,003
949;0,0026
950;0,0016
951;0,0014
952;0,0016
953;0,0021
954;0,0011
955;0,0021
956;0,0017
957;0,0022
958;0,0022
959;0,0019
960;0,0021
961;0,0022
962;0,0023
963;0,0019
964;0,002
965;0,002
966;0,0012
967;0,002
968;0,0017
969;0,0016
970;0,0017
971;0,0014
972;0,0013
973;0,0011
974;0,0023
975;0,0017
976;0,0021
977;0,0017
978;0,0021
979;0,0021
980;0,0015
981;0,0014
982;0,0015
983;0,0024
984;0,0022
985;0,0021
986;0,0025
987;0,002
988;0,0018
989;0,0029
990;0,0029
991;0,0026
992;0,0016
993;0,0015
994;0,0018
995;0,002
996;0,0027
997;0,0025
998;0,0016
999;0,0018
1000;0,0025
1001;0,0022
1002;0,0027
1003;0,0023
1004;0,0025
1005;0,0028
1006;0,0025
1007;0,0031
1008;0,0028
1009;0,0016
1010;0,0019
1011;0,002
1012;0,0021
1013;0,0019
1014;0,0029
1015;0,0032
1016;0,0036
1017;0,0036
1018;0,0033
1019;0,0034
1020;0,0047
1021;0,0026
1022;0,0032
1023;0,0027
1024;0,0028
1025;0,0017
1026;0,0029
1027;0,0037
1028;0,0023
1029;0,0033
1030;0,0027
1031;0,0029
1032;0,0026
1033;0,0046
1034;0,0026
1035;0,0036
1036;0,0051
1037;0,0022
1038;0,0026
1039;0,0041
1040;0,0056
1041;0,0031
1042;0,0051
1043;0,005
1044;0,0061
1045;0,0053
1046;0,0056
1047;0,0059
1048;0,0038
1049;0,0061
1050;0,0048
1051;0,0049
1052;0,0042
1053;0,0054
1054;0,0054
1055;0,0051
1056;0,0057
1057;0,0053
1058;0,0056
1059;0,002
1060;0,0052
1061;0,006
1062;0,0067
1063;0,0066
1064;0,0056
1065;0,004
1066;0,0052
1067;0,0058
1068;0,0076
1069;0,0039
1070;0,0048
1071;0,0063
1072;0,0043
1073;0,0014
1074;0,0072
1075;0,0044
1076;0,0058
1077;0,0056
1078;0,0076
1079;0,0072
1080;0,0086
1081;0,0095
1082;0,0068
1083;0,0047
1084;0,0025
1085;0,0022
1086;0,0039
1087;0,0095
1088;0,0049
1089;0,0076
1090;0,0058
1091;0,0075
1092;0,0039
1093;0,0102
1094;0,0129
1095;0,0064
1096;0,0122
1097;0,0041
1098;0,0082
1099;0,0083
1100;0,0066
