AP02_080725.csv;;Schick;30.07.2025 16:06:22;GENESYS 10S UV-Vis;2L9S114206;4.005
nm;A
190;1,5471
191;1,3626
192;1,1823
193;1,0289
194;0,9059
195;0,8056
196;0,7395
197;0,6824
198;0,6238
199;0,5809
200;0,5484
201;0,5201
202;0,4966
203;0,4765
204;0,458
205;0,4433
206;0,429
207;0,4155
208;0,4043
209;0,3933
210;0,3834
211;0,3735
212;0,3647
213;0,3559
214;0,3468
215;0,3386
216;0,3296
217;0,322
218;0,3144
219;0,3064
220;0,2992
221;0,2926
222;0,2861
223;0,2799
224;0,2741
225;0,268
226;0,2622
227;0,2576
228;0,2531
229;0,2481
230;0,2435
231;0,2378
232;0,2335
233;0,2298
234;0,2256
235;0,222
236;0,2188
237;0,2155
238;0,2121
239;0,2092
240;0,2065
241;0,2043
242;0,2019
243;0,1991
244;0,1968
245;0,1952
246;0,1936
247;0,1918
248;0,19
249;0,1882
250;0,1865
251;0,1849
252;0,1835
253;0,1818
254;0,1797
255;0,1783
256;0,1766
257;0,1747
258;0,1734
259;0,172
260;0,17
261;0,1682
262;0,1663
263;0,1641
264;0,1623
265;0,1603
266;0,158
267;0,1559
268;0,1534
269;0,1516
270;0,1498
271;0,1478
272;0,1455
273;0,1433
274;0,1411
275;0,1391
276;0,137
277;0,1348
278;0,1321
279;0,1301
280;0,1283
281;0,1262
282;0,1241
283;0,1219
284;0,1198
285;0,118
286;0,1161
287;0,1137
288;0,1117
289;0,1099
290;0,1078
291;0,1058
292;0,1039
293;0,1022
294;0,1004
295;0,0988
296;0,0972
297;0,0955
298;0,0939
299;0,0923
300;0,0908
301;0,0893
302;0,0875
303;0,086
304;0,0846
305;0,0831
306;0,0818
307;0,0805
308;0,0792
309;0,078
310;0,0766
311;0,0757
312;0,0738
313;0,0731
314;0,072
315;0,0711
316;0,0699
317;0,0687
318;0,0678
319;0,0667
320;0,0655
321;0,0645
322;0,0635
323;0,0624
324;0,0617
325;0,0604
326;0,0594
327;0,0584
328;0,0576
329;0,0567
330;0,0561
331;0,0551
332;0,0543
333;0,0535
334;0,0528
335;0,0518
336;0,0511
337;0,0503
338;0,0496
339;0,0486
340;0,0478
341;0,0472
342;0,0465
343;0,0458
344;0,045
345;0,0446
346;0,0437
347;0,0432
348;0,0422
349;0,0413
350;0,0408
351;0,0404
352;0,0395
353;0,039
354;0,0383
355;0,0379
356;0,0371
357;0,0369
358;0,0361
359;0,0354
360;0,0349
361;0,0345
362;0,0339
363;0,0333
364;0,0326
365;0,032
366;0,0316
367;0,0308
368;0,0305
369;0,0299
370;0,0294
371;0,029
372;0,0285
373;0,0279
374;0,0274
375;0,0271
376;0,0266
377;0,0262
378;0,0258
379;0,0253
380;0,025
381;0,0244
382;0,0241
383;0,0238
384;0,0235
385;0,0227
386;0,0227
387;0,0222
388;0,0218
389;0,0215
390;0,0211
391;0,0208
392;0,0203
393;0,0198
394;0,0198
395;0,0193
396;0,019
397;0,0185
398;0,0184
399;0,0181
400;0,0176
401;0,0177
402;0,017
403;0,0168
404;0,0165
405;0,0163
406;0,016
407;0,0154
408;0,0152
409;0,0153
410;0,0151
411;0,0147
412;0,0144
413;0,0144
414;0,014
415;0,0139
416;0,0135
417;0,0136
418;0,0134
419;0,0131
420;0,0131
421;0,0129
422;0,0128
423;0,0124
424;0,0125
425;0,0123
426;0,0121
427;0,012
428;0,0117
429;0,0115
430;0,0114
431;0,0111
432;0,0111
433;0,0107
434;0,0108
435;0,0106
436;0,0104
437;0,0102
438;0,0104
439;0,0103
440;0,0098
441;0,0098
442;0,0099
443;0,0096
444;0,0094
445;0,0094
446;0,0091
447;0,0091
448;0,0089
449;0,0089
450;0,0086
451;0,0085
452;0,0084
453;0,0084
454;0,0077
455;0,0078
456;0,008
457;0,0076
458;0,0079
459;0,0076
460;0,0076
461;0,0075
462;0,0075
463;0,0073
464;0,0074
465;0,0074
466;0,0071
467;0,0072
468;0,0071
469;0,007
470;0,0069
471;0,0068
472;0,0067
473;0,0068
474;0,0067
475;0,0065
476;0,0066
477;0,0065
478;0,0065
479;0,0064
480;0,0062
481;0,0062
482;0,0064
483;0,0055
484;0,0059
485;0,0062
486;0,006
487;0,0058
488;0,0059
489;0,0058
490;0,0059
491;0,0056
492;0,0055
493;0,0056
494;0,0053
495;0,0053
496;0,0053
497;0,005
498;0,0051
499;0,005
500;0,0049
501;0,0047
502;0,0048
503;0,0045
504;0,0047
505;0,005
506;0,0047
507;0,0044
508;0,0047
509;0,0047
510;0,0045
511;0,0046
512;0,0043
513;0,0045
514;0,0045
515;0,0043
516;0,0043
517;0,0044
518;0,0041
519;0,0039
520;0,0043
521;0,004
522;0,0041
523;0,0039
524;0,0039
525;0,0041
526;0,004
527;0,0041
528;0,0041
529;0,0042
530;0,0039
531;0,0039
532;0,0037
533;0,0038
534;0,0039
535;0,0039
536;0,0036
537;0,0034
538;0,0036
539;0,0034
540;0,0037
541;0,0035
542;0,0037
543;0,0033
544;0,0032
545;0,0033
546;0,0035
547;0,0034
548;0,0034
549;0,0033
550;0,0031
551;0,003
552;0,003
553;0,003
554;0,0026
555;0,0024
556;0,0025
557;0,0026
558;0,0028
559;0,0029
560;0,0023
561;0,0028
562;0,0025
563;0,0019
564;0,0022
565;0,0024
566;0,0022
567;0,0029
568;0,0024
569;0,0028
570;0,0027
571;0,0026
572;0,0028
573;0,0024
574;0,0023
575;0,0026
576;0,0024
577;0,0021
578;0,0027
579;0,002
580;0,0016
581;0,0024
582;0,002
583;0,002
584;0,0021
585;0,002
586;0,0018
587;0,0017
588;0,0019
589;0,0017
590;0,0019
591;0,0015
592;0,0018
593;0,0017
594;0,0016
595;0,0021
596;0,002
597;0,0017
598;0,0016
599;0,0018
600;0,0016
601;0,0025
602;0,002
603;0,0022
604;0,0017
605;0,0015
606;0,0018
607;0,0019
608;0,0015
609;0,0022
610;0,0012
611;0,0015
612;0,001
613;0,0013
614;0,0015
615;0,0021
616;0,0011
617;0,0011
618;0,0015
619;0,0014
620;0,0017
621;0,0015
622;0,002
623;0,0016
624;0,0015
625;0,0015
626;0,0018
627;0,0016
628;0,0013
629;0,0017
630;0,0015
631;0,0018
632;0,001
633;0,0018
634;0,0017
635;0,0009
636;0,0013
637;0,0012
638;0,0008
639;0,0015
640;0,0015
641;0,001
642;0,0019
643;0,0012
644;0,0013
645;0,0016
646;0,0017
647;0,0011
648;0,0017
649;0,0012
650;0,0011
651;0,0011
652;0,0009
653;0,0014
654;0,0011
655;0,0013
656;0,0013
657;0,0014
658;0,0011
659;0,0016
660;0,0014
661;0,001
662;0,0019
663;0,0004
664;0,0012
665;-0,0004
666;0,0009
667;0,0015
668;0
669;0,0004
670;0,0016
671;0,0009
672;0,0013
673;0,0015
674;0,001
675;0,0017
676;0,0015
677;0,0011
678;0,0017
679;0,0016
680;0,0017
681;0,0019
682;0,0017
683;0,0019
684;0,0018
685;0,0015
686;0,0016
687;0,0015
688;0,0014
689;0,0016
690;0,0013
691;0,0014
692;0,0014
693;0,0011
694;0,0011
695;0,0008
696;0,0012
697;0,0016
698;0,0011
699;0,0017
700;0,0014
701;0,0009
702;0,0015
703;0,0008
704;0,0006
705;0,0008
706;0,0018
707;0,0012
708;0,0007
709;0,001
710;0,0011
711;0,0003
712;0,0008
713;0,0008
714;0,0001
715;0,0006
716;0,0013
717;0,0012
718;0,0003
719;0,0012
720;0,0005
721;0,0005
722;0,0006
723;0,0008
724;0,0001
725;0,0005
726;0,001
727;0,0006
728;0,0008
729;0,0008
730;0,0005
731;0,0008
732;0,0008
733;0,0004
734;0,0005
735;0,0007
736;0,0011
737;0,0009
738;-0,0002
739;0,0007
740;0,001
741;0,0005
742;0,0008
743;0,0001
744;0,0002
745;0,0007
746;-0,0003
747;0,0006
748;0,0008
749;0,001
750;0,0009
751;0,0001
752;0,0004
753;0,0005
754;-0,0004
755;-0,0005
756;0,0005
757;0,0006
758;0,0005
759;0,0008
760;0,0006
761;0,0008
762;-0,0002
763;0,001
764;0,0005
765;0,0009
766;0,0005
767;-0,0002
768;0,0003
769;0,0005
770;0,0006
771;0,0002
772;0,001
773;0,0001
774;0,0003
775;-0,0002
776;0,0002
777;0,0006
778;0,0005
779;0,0009
780;0,0003
781;-0,0007
782;0,0004
783;-0,0004
784;0,0011
785;0,0007
786;-0,0004
787;0,0006
788;-0,0006
789;0,0008
790;0,0004
791;-0,0007
792;-0,0004
793;0,0009
794;-0,0005
795;0,0008
796;0,0002
797;0,0002
798;0,0011
799;0,001
800;0,0007
801;0,0006
802;-0,0002
803;-0,0001
804;-0,0001
805;0,0003
806;0,0001
807;0
808;0,0007
809;-0,0007
810;-0,0001
811;0,0004
812;0,0001
813;0,0012
814;-0,0002
815;-0,0002
816;-0,001
817;0
818;0,0006
819;-0,0003
820;0,0001
821;0,0005
822;0,0012
823;0,001
824;0,0012
825;0,0007
826;0,0005
827;0,0005
828;0,0007
829;0,0003
830;0,0005
831;0,0008
832;0,0008
833;0,0004
834;0,0009
835;0,0007
836;0,0004
837;-0,0005
838;0,0006
839;0,0002
840;-0,0002
841;0,0003
842;0,0006
843;-0,0005
844;-0,0014
845;-0,0005
846;0,0001
847;0,0002
848;-0,0006
849;-0,0001
850;-0,0005
851;0,0006
852;-0,0012
853;-0,0018
854;-0,0005
855;-0,0006
856;-0,0005
857;0,0002
858;-0,001
859;0,0009
860;-0,0016
861;-0,0019
862;0,0003
863;0
864;-0,0008
865;-0,0001
866;0,0001
867;0,0002
868;-0,0005
869;-0,0013
870;-0,0003
871;0,0003
872;-0,0005
873;-0,0005
874;0,0004
875;-0,0004
876;0,0001
877;0,0007
878;-0,0006
879;0,0002
880;0,0005
881;0,0008
882;0,0013
883;0,001
884;0,0012
885;0,0008
886;0,0006
887;0,0006
888;0
889;0
890;0,0003
891;0,0001
892;0,0009
893;0,0006
894;0,0002
895;0,0006
896;0,0003
897;0,001
898;0,0005
899;0,0004
900;0,0001
901;0,0003
902;0,0005
903;0,0003
904;0,0008
905;0,0009
906;0,0004
907;0,0003
908;0,0004
909;0,0012
910;0,0004
911;0,0004
912;0,0008
913;-0,0001
914;0,0007
915;0,0003
916;0,001
917;0,0007
918;0,0015
919;0,0014
920;0,0016
921;0,0017
922;0,0014
923;0,0018
924;0,0031
925;0,0018
926;0,0021
927;0,0015
928;0,001
929;0,0021
930;0,0024
931;0,0024
932;0,0031
933;0,0021
934;0,003
935;0,0019
936;0,002
937;0,0021
938;0,0014
939;0,0015
940;0,0017
941;0,0015
942;0,0015
943;0,003
944;0,0015
945;0,0017
946;0,0017
947;0,0015
948;0,0013
949;0,0017
950;0,0013
951;0,0011
952;0,0014
953;0,0016
954;0,0012
955;0,0019
956;0,0007
957;0,0022
958;0,0015
959;0,0016
960;0,0017
961;0,0017
962;0,0009
963;0,0017
964;0,0018
965;0,0009
966;0,0015
967;0,0017
968;0,0012
969;0,0009
970;0,0004
971;0,0014
972;0,0012
973;0,0008
974;0,0012
975;0,0013
976;0,0009
977;0,001
978;0,0021
979;0,0012
980;0,0009
981;0,0002
982;0,0007
983;0,0008
984;0,0022
985;0,0004
986;0,0022
987;0,0019
988;0,0008
989;0,0011
990;0,0013
991;0,0015
992;0,001
993;0,0005
994;0,0007
995;0,0013
996;0,0015
997;0,0016
998;0,0007
999;0,0014
1000;0,0021
1001;0,0016
1002;0,0008
1003;0,0011
1004;0,0022
1005;0,0005
1006;0,0006
1007;0,0022
1008;0,0008
1009;0,0018
1010;0,0019
1011;0,0012
1012;0,001
1013;0,001
1014;0,0013
1015;0,0016
1016;0,0014
1017;0,0028
1018;0,0016
1019;0,0016
1020;0,0029
1021;0,0029
1022;0,001
1023;0,0031
1024;0,0027
1025;0,0027
1026;0,0031
1027;0,003
1028;0,0032
1029;0,003
1030;0,0023
1031;0,0031
1032;0,003
1033;-0,0005
1034;0,0008
1035;0,0036
1036;-0,0004
1037;0,0005
1038;0,0012
1039;0,004
1040;0,0039
1041;0,0041
1042;0,0021
1043;0,0027
1044;0,0009
1045;0,0011
1046;0,003
1047;0,0036
1048;0,0025
1049;0,0011
1050;0,0012
1051;0,0013
1052;0,0018
1053;0,0012
1054;0,0041
1055;0,0011
1056;0,0057
1057;0,003
1058;0,0038
1059;0,0036
1060;0,0031
1061;0,0015
1062;0,0027
1063;0,0022
1064;-0,0003
1065;-0,0011
1066;0,001
1067;0,0027
1068;0,0019
1069;0,0016
1070;0,0032
1071;0,0029
1072;-0,0007
1073;0,0029
1074;0,0064
1075;0,0015
1076;0,0052
1077;0,0016
1078;0,0017
1079;0,002
1080;0,0018
1081;-0,0013
1082;0,0004
1083;0,0008
1084;0,002
1085;0,0048
1086;0,0013
1087;0,0037
1088;0,0019
1089;0,0045
1090;0,0007
1091;0,0027
1092;0,0033
1093;0,0038
1094;0,0077
1095;-0,0002
1096;0,0059
1097;0,0002
1098;0,0077
1099;0,0012
1100;0,0086
