SP02_240625.csv;;Schick;30.07.2025 16:06:23;GENESYS 10S UV-Vis;2L9S114206;4.005
nm;A
190;1,4424
191;1,2817
192;1,1334
193;1,0085
194;0,9094
195;0,8294
196;0,7761
197;0,7309
198;0,6827
199;0,6466
200;0,6179
201;0,5924
202;0,5698
203;0,5494
204;0,5298
205;0,5137
206;0,4973
207;0,4817
208;0,4681
209;0,4553
210;0,4434
211;0,4318
212;0,4215
213;0,4111
214;0,4012
215;0,3914
216;0,3815
217;0,373
218;0,3647
219;0,3563
220;0,3485
221;0,3417
222;0,3349
223;0,3282
224;0,3223
225;0,316
226;0,3099
227;0,3049
228;0,3001
229;0,2946
230;0,2895
231;0,2834
232;0,2785
233;0,2745
234;0,2697
235;0,2656
236;0,2618
237;0,2579
238;0,254
239;0,2505
240;0,2473
241;0,2447
242;0,2418
243;0,2386
244;0,236
245;0,2338
246;0,2319
247;0,2298
248;0,2276
249;0,2254
250;0,2234
251;0,2216
252;0,22
253;0,218
254;0,2155
255;0,2138
256;0,212
257;0,2099
258;0,2082
259;0,2068
260;0,2045
261;0,2025
262;0,2004
263;0,198
264;0,1959
265;0,1937
266;0,1911
267;0,1888
268;0,1861
269;0,1839
270;0,1819
271;0,1797
272;0,1771
273;0,1747
274;0,1721
275;0,1697
276;0,1674
277;0,1646
278;0,1618
279;0,1593
280;0,1571
281;0,1547
282;0,1522
283;0,1496
284;0,1471
285;0,1448
286;0,1424
287;0,1396
288;0,137
289;0,1349
290;0,1323
291;0,1298
292;0,1278
293;0,1255
294;0,1234
295;0,1214
296;0,1195
297;0,1175
298;0,1156
299;0,1137
300;0,1118
301;0,1103
302;0,108
303;0,1062
304;0,1045
305;0,1027
306;0,1012
307;0,0997
308;0,098
309;0,0966
310;0,0951
311;0,0939
312;0,0917
313;0,0908
314;0,0892
315;0,0881
316;0,0866
317;0,0852
318;0,084
319;0,0827
320;0,0811
321;0,0799
322;0,0785
323;0,0773
324;0,0762
325;0,0749
326;0,0736
327;0,0723
328;0,0713
329;0,0702
330;0,0693
331;0,0683
332;0,067
333;0,066
334;0,0653
335;0,064
336;0,0632
337;0,062
338;0,0611
339;0,0601
340;0,0593
341;0,0587
342;0,0575
343;0,0567
344;0,0557
345;0,0552
346;0,0542
347;0,0535
348;0,0525
349;0,0514
350;0,0511
351;0,0503
352;0,0493
353;0,0487
354;0,0479
355;0,0472
356;0,0464
357;0,046
358;0,0451
359;0,0442
360;0,0438
361;0,043
362;0,0423
363;0,0416
364;0,041
365;0,0402
366;0,0396
367;0,0389
368;0,0383
369;0,0377
370;0,037
371;0,0365
372;0,0358
373;0,0353
374;0,0346
375;0,0339
376;0,0334
377;0,0329
378;0,0326
379;0,0319
380;0,0316
381;0,0308
382;0,0303
383;0,0298
384;0,0296
385;0,0287
386;0,0284
387;0,0279
388;0,0274
389;0,027
390;0,0266
391;0,0263
392;0,0258
393;0,0254
394;0,025
395;0,0244
396;0,024
397;0,0235
398;0,0233
399;0,023
400;0,0226
401;0,0224
402;0,0217
403;0,0214
404;0,0212
405;0,0208
406;0,0205
407;0,02
408;0,0196
409;0,0195
410;0,0194
411;0,0189
412;0,0188
413;0,0185
414;0,018
415;0,0179
416;0,0173
417;0,0174
418;0,0172
419;0,0169
420;0,0166
421;0,0164
422;0,0163
423;0,016
424;0,0159
425;0,0155
426;0,0153
427;0,0151
428;0,0149
429;0,0145
430;0,0145
431;0,0142
432;0,0141
433;0,0137
434;0,0136
435;0,0134
436;0,0131
437;0,0129
438;0,0129
439;0,0127
440;0,0124
441;0,0123
442;0,0122
443;0,0119
444;0,0117
445;0,0117
446;0,0112
447;0,0114
448;0,0111
449;0,0109
450;0,0107
451;0,0103
452;0,0105
453;0,0102
454;0,0098
455;0,0099
456;0,01
457;0,0096
458;0,0098
459;0,0096
460;0,0095
461;0,0095
462;0,0093
463;0,0092
464;0,0093
465;0,0091
466;0,0087
467;0,0087
468;0,0086
469;0,0086
470;0,0085
471;0,0084
472;0,0082
473;0,0082
474;0,0082
475;0,008
476;0,0081
477;0,0079
478;0,0074
479;0,0076
480;0,0076
481;0,0075
482;0,0076
483;0,0067
484;0,0071
485;0,0073
486;0,0073
487;0,0071
488;0,0069
489;0,0069
490;0,0068
491;0,0066
492;0,0064
493;0,0067
494;0,0066
495;0,0063
496;0,0063
497;0,0062
498;0,0063
499;0,0061
500;0,0059
501;0,0058
502;0,0059
503;0,0055
504;0,0058
505;0,0055
506;0,0054
507;0,0054
508;0,0055
509;0,0054
510;0,0054
511;0,0052
512;0,0047
513;0,005
514;0,0054
515;0,0047
516;0,0048
517;0,005
518;0,0045
519;0,005
520;0,0049
521;0,0047
522;0,0049
523;0,0045
524;0,0043
525;0,0043
526;0,0046
527;0,0043
528;0,0044
529;0,0041
530;0,0045
531;0,0042
532;0,0042
533;0,0042
534;0,004
535;0,0037
536;0,0037
537;0,0037
538;0,0037
539;0,0038
540;0,0037
541;0,0037
542;0,0035
543;0,0034
544;0,0037
545;0,0035
546;0,0032
547;0,0034
548;0,0037
549;0,0029
550;0,0031
551;0,0031
552;0,0029
553;0,0031
554;0,0026
555;0,0029
556;0,0027
557;0,0028
558;0,0023
559;0,0025
560;0,0026
561;0,0023
562;0,0025
563;0,0019
564;0,002
565;0,0023
566;0,0026
567;0,0025
568;0,002
569;0,0021
570;0,0029
571;0,0018
572;0,0019
573;0,0022
574;0,0018
575;0,002
576;0,0023
577;0,0023
578;0,0019
579;0,0018
580;0,0016
581;0,0019
582;0,0017
583;0,0013
584;0,0021
585;0,0018
586;0,0014
587;0,0016
588;0,0011
589;0,0016
590;0,0019
591;0,0012
592;0,0018
593;0,0012
594;0,0017
595;0,0016
596;0,0015
597;0,0016
598;0,0019
599;0,0011
600;0,0016
601;0,0019
602;0,0015
603;0,0016
604;0,0017
605;0,0013
606;0,0019
607;0,0011
608;0,0009
609;0,0015
610;0,0012
611;0,0017
612;0,0009
613;0,0012
614;0,0015
615;0,0015
616;0,001
617;0,0011
618;0,0009
619;0,001
620;0,0011
621;0,0009
622;0,0011
623;0,001
624;0,0014
625;0,0009
626;0,0013
627;0,0016
628;0,001
629;0,0018
630;0,0012
631;0,0015
632;0,0008
633;0,001
634;0,0012
635;0,001
636;0,0014
637;0,0008
638;0,0008
639;0,0012
640;0,0012
641;0,0005
642;0,001
643;0,0014
644;0,0008
645;0,0012
646;0,001
647;0,0011
648;0,0015
649;0,0004
650;0,002
651;0,0015
652;0,0009
653;0,0017
654;0,0019
655;0,0013
656;0,001
657;0,0013
658;0,0007
659;0,0015
660;0,0012
661;0,0009
662;0,0021
663;0,0009
664;0,0008
665;0,0002
666;0,0006
667;0,001
668;-0,0006
669;0,0004
670;0,0003
671;0,0012
672;0,0006
673;0,0012
674;0,0013
675;0,0013
676;0,0011
677;0,0011
678;0,0015
679;0,0011
680;0,0012
681;0,001
682;0,0009
683;0,0011
684;0,0014
685;0,001
686;0,0015
687;0,0012
688;0,0018
689;0,0013
690;0,0011
691;0,0012
692;0,001
693;0,0009
694;0,0014
695;0,0015
696;0,001
697;0,0012
698;0,0009
699;0,0014
700;0,0014
701;0,0011
702;0,0017
703;0,0008
704;0,001
705;0,0003
706;0,0008
707;0,0007
708;0,0007
709;0,0006
710;0,0009
711;0,0005
712;0,0007
713;0,0006
714;-0,0002
715;0,0006
716;0,0006
717;0,0002
718;0,0008
719;0,0006
720;-0,0003
721;0,0012
722;0
723;0,0008
724;0,0002
725;0,0003
726;0,0003
727;0,0015
728;-0,0001
729;0
730;0,0005
731;-0,0001
732;0,0002
733;-0,0004
734;0,0005
735;0,0008
736;0,0009
737;0,0006
738;-0,0003
739;0,0003
740;0,0011
741;0,0005
742;0,0003
743;0,0005
744;0,0002
745;0,0001
746;-0,001
747;-0,0004
748;0,001
749;0,001
750;0,0003
751;-0,0002
752;-0,0004
753;-0,0003
754;-0,0007
755;-0,0007
756;0,0007
757;0
758;0,0002
759;0
760;-0,0002
761;0,0007
762;-0,0001
763;0,0009
764;0,0002
765;0,0002
766;0,0002
767;-0,0007
768;0,0001
769;0,0002
770;-0,0001
771;0
772;0
773;0,0006
774;0,0005
775;0,0002
776;0,0001
777;0,0008
778;0,0001
779;-0,0002
780;0,0002
781;0,0001
782;0,0002
783;0,0002
784;0,0013
785;0,0008
786;0,0001
787;0,0005
788;-0,001
789;-0,0001
790;0,0002
791;0
792;-0,0003
793;0,0001
794;-0,0007
795;-0,0002
796;0,0001
797;0,0009
798;0,0009
799;0,0004
800;0,0002
801;-0,0006
802;-0,0008
803;0,0002
804;0,0001
805;0,0003
806;-0,0001
807;-0,0002
808;0,0002
809;0,0004
810;0,0007
811;0,0001
812;-0,0003
813;0,0007
814;-0,0007
815;0,0002
816;-0,0004
817;-0,0002
818;0,0006
819;0,0004
820;0,0006
821;0,0001
822;0,001
823;0,0003
824;0,0006
825;0,0005
826;0,0003
827;0,0005
828;0,0005
829;0,0001
830;0
831;0,0002
832;0,0003
833;0,0002
834;0,0008
835;0,0004
836;0,0003
837;-0,0003
838;0,0006
839;0,0007
840;0,001
841;0,0003
842;0,0002
843;0,0005
844;-0,0009
845;0,0001
846;0,0015
847;0
848;-0,0005
849;0,0002
850;0,0009
851;-0,0001
852;0,0008
853;-0,0012
854;0,0004
855;-0,0003
856;-0,0009
857;0,0001
858;-0,001
859;0,002
860;-0,0009
861;-0,0004
862;0
863;0
864;-0,0009
865;0,0004
866;0,0001
867;0,0009
868;-0,0011
869;0,0005
870;0,0012
871;0,0008
872;0,0002
873;0,0002
874;0,0016
875;-0,0006
876;0,0011
877;0,0006
878;0,0005
879;0,0005
880;0,0003
881;0,0002
882;0,001
883;0,0007
884;0,0008
885;0,0003
886;0,0004
887;0,001
888;-0,0001
889;0,0004
890;0,0006
891;0,0005
892;0,0006
893;0,0002
894;0,0005
895;0,0003
896;0,0005
897;0,0007
898;0,0007
899;0,0001
900;0,0005
901;0,0008
902;0,0013
903;0,0006
904;0,0008
905;0,0003
906;0,0006
907;0,0001
908;0,0001
909;0,0007
910;0,0003
911;0,0007
912;0,0002
913;0,0003
914;0,0011
915;0,0008
916;0,001
917;0,0007
918;0,0008
919;0,001
920;0,0004
921;0,001
922;0,0008
923;0,0017
924;0,001
925;0,0003
926;0,0009
927;-0,0004
928;0,0004
929;0,0008
930;0,0005
931;0,0018
932;0,0017
933;0,0012
934;0,0007
935;0,0004
936;0,0014
937;0,0008
938;0,001
939;0,0009
940;0,0009
941;0,0007
942;0,0008
943;0,0018
944;0,0002
945;0,0008
946;0,001
947;0,0008
948;0,0004
949;0,0014
950;0,0005
951;0,0004
952;0,0006
953;0,0007
954;0,0003
955;0,0008
956;-0,0002
957;0,0004
958;-0,0002
959;0,0005
960;0,0008
961;0,0007
962;-0,0001
963;0,001
964;-0,0003
965;-0,0001
966;0,0007
967;0,0005
968;0,0004
969;0,0001
970;-0,0002
971;0,0006
972;0,0006
973;0
974;0,0003
975;0,0005
976;0,0002
977;0,0001
978;0,0012
979;0,0002
980;0,0003
981;-0,0003
982;0,0001
983;-0,0001
984;0,0003
985;-0,0004
986;0,0014
987;0,0013
988;-0,0004
989;0,0013
990;0,0007
991;0,0006
992;0,0004
993;0,0003
994;0,0004
995;0,0008
996;0,0004
997;0,0011
998;-0,0002
999;-0,0001
1000;0,0013
1001;-0,0001
1002;-0,0001
1003;0,0002
1004;0,0005
1005;-0,0006
1006;0,001
1007;0,001
1008;0,0003
1009;0,0003
1010;0,0009
1011;0,0007
1012;0,0004
1013;0,0007
1014;0,0007
1015;0,0015
1016;0,0011
1017;0,0021
1018;0
1019;0,0001
1020;0,0013
1021;0,001
1022;0,0005
1023;0,0015
1024;0,0011
1025;0,0024
1026;0,0007
1027;-0,0001
1028;0,0016
1029;0,0017
1030;0,0022
1031;0,0017
1032;0,0019
1033;-0,001
1034;0,0007
1035;0,0014
1036;-0,0005
1037;-0,0006
1038;-0,0003
1039;0,0018
1040;0,0017
1041;0,0021
1042;0,0009
1043;0,0015
1044;-0,0013
1045;0,0005
1046;0,0017
1047;0,0023
1048;0,0019
1049;0,0002
1050;0,0014
1051;0,0022
1052;0,0004
1053;0,0009
1054;0,0016
1055;0,0018
1056;0,0047
1057;0,0021
1058;0,0001
1059;0,0018
1060;0,0015
1061;0,0037
1062;0,0008
1063;0,0031
1064;0,0005
1065;-0,0003
1066;0,0005
1067;0,0009
1068;-0,0012
1069;0,0019
1070;0,0038
1071;0,0003
1072;-0,0021
1073;0,0002
1074;0,0054
1075;0,0019
1076;0,0016
1077;0,0003
1078;0,0022
1079;0,003
1080;0,0031
1081;0,0003
1082;0,003
1083;0,0021
1084;0,0033
1085;0,0031
1086;0,0025
1087;0,0049
1088;-0,0004
1089;0,0014
1090;0,0006
1091;0,0014
1092;0,0021
1093;0,0025
1094;0,0072
1095;0,0002
1096;0,0007
1097;0,002
1098;0,0088
1099;0,0046
1100;-0,0002
