SP02_010725.csv;;Schick;30.07.2025 16:06:23;GENESYS 10S UV-Vis;2L9S114206;4.005
nm;A
190;1,4461
191;1,288
192;1,1445
193;1,0253
194;0,931
195;0,8565
196;0,8072
197;0,7651
198;0,7195
199;0,6846
200;0,6575
201;0,6326
202;0,6102
203;0,59
204;0,5697
205;0,5529
206;0,5356
207;0,5187
208;0,5042
209;0,4895
210;0,4764
211;0,4625
212;0,4514
213;0,4401
214;0,4281
215;0,4168
216;0,4051
217;0,3952
218;0,3855
219;0,3754
220;0,3666
221;0,3587
222;0,3505
223;0,343
224;0,3359
225;0,3286
226;0,3219
227;0,3165
228;0,3113
229;0,3052
230;0,2999
231;0,2932
232;0,288
233;0,2837
234;0,2786
235;0,2745
236;0,2704
237;0,2664
238;0,2623
239;0,2588
240;0,2556
241;0,2532
242;0,2504
243;0,2469
244;0,2442
245;0,2423
246;0,2406
247;0,2386
248;0,2363
249;0,2342
250;0,2323
251;0,2305
252;0,2288
253;0,2267
254;0,2245
255;0,2224
256;0,2205
257;0,2184
258;0,2168
259;0,2154
260;0,2128
261;0,2107
262;0,2085
263;0,2056
264;0,2034
265;0,201
266;0,1982
267;0,1957
268;0,1927
269;0,1904
270;0,1884
271;0,1859
272;0,1831
273;0,1802
274;0,1775
275;0,175
276;0,1724
277;0,1696
278;0,1665
279;0,1638
280;0,1615
281;0,1589
282;0,1559
283;0,1533
284;0,1507
285;0,1481
286;0,1456
287;0,1425
288;0,1398
289;0,1375
290;0,1347
291;0,132
292;0,1298
293;0,1276
294;0,1253
295;0,1232
296;0,1212
297;0,1191
298;0,1171
299;0,1149
300;0,1131
301;0,1114
302;0,109
303;0,1072
304;0,1055
305;0,1036
306;0,1019
307;0,1005
308;0,0987
309;0,0972
310;0,0959
311;0,0939
312;0,0925
313;0,0911
314;0,0898
315;0,0887
316;0,0872
317;0,0855
318;0,0844
319;0,0832
320;0,0816
321;0,08
322;0,0787
323;0,0777
324;0,0765
325;0,075
326;0,074
327;0,0726
328;0,0713
329;0,0703
330;0,0691
331;0,068
332;0,0672
333;0,0661
334;0,0651
335;0,0641
336;0,0631
337;0,062
338;0,0612
339;0,0603
340;0,059
341;0,0583
342;0,0574
343;0,0566
344;0,0558
345;0,0551
346;0,0541
347;0,0531
348;0,0523
349;0,0513
350;0,0506
351;0,0502
352;0,0493
353;0,0485
354;0,0479
355;0,0469
356;0,0462
357;0,0457
358;0,0448
359;0,0441
360;0,0435
361;0,0428
362;0,0422
363;0,0416
364;0,0408
365;0,0399
366;0,0396
367;0,0387
368;0,038
369;0,0375
370;0,0367
371;0,0363
372;0,0357
373;0,0348
374;0,0343
375;0,0339
376;0,0333
377;0,0331
378;0,0324
379;0,0317
380;0,0312
381;0,0306
382;0,0302
383;0,0296
384;0,0291
385;0,0286
386;0,0283
387;0,0277
388;0,0273
389;0,0268
390;0,0263
391;0,026
392;0,0255
393;0,0249
394;0,0246
395;0,0243
396;0,0235
397;0,0231
398;0,023
399;0,0224
400;0,0222
401;0,0219
402;0,0214
403;0,0211
404;0,0208
405;0,0205
406;0,02
407;0,0197
408;0,0192
409;0,0191
410;0,0189
411;0,0185
412;0,0182
413;0,0177
414;0,0176
415;0,0173
416;0,0174
417;0,0168
418;0,0166
419;0,0163
420;0,016
421;0,016
422;0,0156
423;0,0153
424;0,0151
425;0,0149
426;0,0147
427;0,0146
428;0,0143
429;0,014
430;0,0139
431;0,0134
432;0,0133
433;0,0131
434;0,0126
435;0,0127
436;0,0126
437;0,0123
438;0,0122
439;0,012
440;0,0119
441;0,0117
442;0,0115
443;0,0113
444;0,011
445;0,0111
446;0,0108
447;0,0108
448;0,0107
449;0,0105
450;0,0102
451;0,0099
452;0,0101
453;0,01
454;0,0096
455;0,0094
456;0,0097
457;0,0092
458;0,0093
459;0,0092
460;0,0091
461;0,0091
462;0,009
463;0,0089
464;0,0087
465;0,0087
466;0,0083
467;0,0083
468;0,0083
469;0,0081
470;0,0079
471;0,0079
472;0,0078
473;0,0076
474;0,0074
475;0,0075
476;0,0073
477;0,0072
478;0,0071
479;0,0072
480;0,0071
481;0,007
482;0,0069
483;0,0061
484;0,0065
485;0,0065
486;0,0067
487;0,0065
488;0,0063
489;0,0064
490;0,0061
491;0,0062
492;0,0059
493;0,0061
494;0,0061
495;0,0056
496;0,0059
497;0,0058
498;0,0055
499;0,0054
500;0,0054
501;0,0054
502;0,0052
503;0,0049
504;0,0052
505;0,0053
506;0,0051
507;0,0051
508;0,0048
509;0,0048
510;0,0047
511;0,0049
512;0,0047
513;0,0049
514;0,0047
515;0,0043
516;0,0043
517;0,0046
518;0,0045
519;0,0047
520;0,0047
521;0,0041
522;0,0043
523;0,0043
524;0,004
525;0,0042
526;0,0041
527;0,0041
528;0,0042
529;0,0042
530;0,0042
531;0,0042
532;0,004
533;0,0039
534;0,0042
535;0,0037
536;0,0039
537;0,0037
538;0,0038
539;0,0036
540;0,0038
541;0,0036
542;0,0038
543;0,0036
544;0,0033
545;0,0035
546;0,0032
547;0,0031
548;0,0032
549;0,003
550;0,0033
551;0,0034
552;0,0031
553;0,003
554;0,0029
555;0,0033
556;0,0034
557;0,0027
558;0,003
559;0,0035
560;0,0028
561;0,0027
562;0,0028
563;0,0022
564;0,0027
565;0,0029
566;0,0024
567;0,0027
568;0,0026
569;0,0023
570;0,0023
571;0,0025
572;0,0028
573;0,0023
574;0,0021
575;0,0022
576;0,0027
577;0,0019
578;0,0018
579;0,0021
580;0,0026
581;0,002
582;0,0016
583;0,0024
584;0,0021
585;0,0022
586;0,0017
587;0,0022
588;0,0024
589;0,0019
590;0,002
591;0,0015
592;0,0016
593;0,0015
594;0,0018
595;0,0023
596;0,002
597;0,0015
598;0,0017
599;0,0018
600;0,0019
601;0,0018
602;0,0014
603;0,0016
604;0,002
605;0,0016
606;0,002
607;0,0014
608;0,0017
609;0,0018
610;0,0014
611;0,0019
612;0,0015
613;0,0013
614;0,0015
615;0,0014
616;0,001
617;0,0021
618;0,0014
619;0,001
620;0,001
621;0,0014
622;0,0003
623;0,0016
624;0,0016
625;0,0015
626;0,0018
627;0,0009
628;0,0014
629;0,0018
630;0,0009
631;0,0012
632;0,001
633;0,0013
634;0,0017
635;0,0013
636;0,0016
637;0,0015
638;0,0008
639;0,0013
640;0,0011
641;0,0008
642;0,0014
643;0,0004
644;0,0006
645;0,0009
646;0,001
647;0,0013
648;0,0011
649;0,0012
650;0,0016
651;0,0017
652;0,0013
653;0,0015
654;0,0011
655;0,0014
656;0,0013
657;0,001
658;0,0014
659;0,002
660;0,0011
661;0,0008
662;0,0013
663;0,0011
664;0,0013
665;-0,0003
666;0,0006
667;0,0023
668;0,0004
669;0,0005
670;0,0024
671;0,001
672;0,0015
673;0,0009
674;0,0013
675;0,0016
676;0,0014
677;0,0015
678;0,0014
679;0,0015
680;0,0014
681;0,0012
682;0,0012
683;0,0015
684;0,0014
685;0,0014
686;0,0013
687;0,001
688;0,0012
689;0,0014
690;0,0015
691;0,0014
692;0,0008
693;0,001
694;0,0016
695;0,001
696;0,001
697;0,0016
698;0,0007
699;0,0013
700;0,0009
701;0,0015
702;0,0015
703;0,0007
704;0,0011
705;0,0006
706;0,0004
707;0,0013
708;0,0001
709;0,0009
710;0,0012
711;0,0008
712;0,0012
713;0,0005
714;0,0007
715;0,0012
716;0,0009
717;0,0011
718;0,0011
719;0,0007
720;0,0011
721;0,0014
722;0,0008
723;0,0007
724;0,0006
725;0,0001
726;0,0012
727;-0,0002
728;0,0002
729;0,0013
730;0,0004
731;0,0016
732;0,0011
733;0,0002
734;0,0007
735;0,0004
736;0
737;0,0005
738;0,0013
739;0,0001
740;0,0007
741;0,0005
742;0,0004
743;0,0013
744;0,0004
745;0,001
746;0,001
747;0,0001
748;0,0014
749;0,0006
750;-0,0005
751;0,0001
752;0,0011
753;0,0004
754;0,0009
755;0,0001
756;0,001
757;0,0001
758;0,0005
759;0,0007
760;0,0007
761;0,001
762;0,0012
763;0,0003
764;0,0009
765;0,0008
766;0,0008
767;0,0006
768;0,0005
769;0,0007
770;0,0006
771;0,0007
772;-0,0005
773;0,0005
774;0,0001
775;0,001
776;0,0012
777;0,0002
778;0,0004
779;-0,0002
780;-0,0001
781;0,0006
782;0,0005
783;0
784;-0,0001
785;0,0006
786;0,0005
787;0,002
788;0,0002
789;0,0008
790;0,0009
791;0,0001
792;-0,0001
793;0,0008
794;0,0011
795;0,0002
796;0,0004
797;-0,0003
798;0,0009
799;0,0002
800;0,0001
801;0,0009
802;0,0012
803;0,0009
804;0,0001
805;0,0001
806;0,0004
807;0,0011
808;0,0011
809;-0,0002
810;0,0014
811;0,0008
812;0,0017
813;0,001
814;0,0002
815;-0,0007
816;0,0008
817;0
818;0,0005
819;0,0004
820;0,0009
821;0,0003
822;0,0009
823;0,0009
824;0,001
825;0,0005
826;0,0006
827;0,0006
828;0,0005
829;0,0005
830;0,0003
831;0,0007
832;-0,0001
833;0,0001
834;0,0007
835;0,0007
836;0,0008
837;-0,0002
838;0,0003
839;0,0002
840;-0,0009
841;0,0006
842;-0,0001
843;0,0007
844;0,0011
845;0,0007
846;0,0008
847;0,0003
848;0,0002
849;-0,0003
850;-0,0001
851;0,0009
852;0,0001
853;0,0001
854;0,0013
855;-0,001
856;-0,0004
857;0,0012
858;-0,0014
859;0,0001
860;-0,001
861;-0,0012
862;-0,0009
863;0,0003
864;0,0005
865;-0,0002
866;0,0008
867;-0,0002
868;-0,001
869;-0,0008
870;-0,0003
871;0
872;0,0014
873;-0,0001
874;0,0002
875;0,0003
876;0,0008
877;0,0009
878;0,0005
879;0,0002
880;0,0006
881;0,0009
882;0,0013
883;0,0012
884;0,001
885;0,001
886;0,0011
887;0,0012
888;0,0008
889;0,0004
890;0,0006
891;0,0009
892;0,001
893;0,0011
894;0,0013
895;0,0009
896;0,001
897;0,0007
898;0,0006
899;0,0007
900;0
901;0,0006
902;0
903;0,0008
904;0
905;0,0006
906;0,0008
907;0,0015
908;0,0003
909;0,0012
910;0,0005
911;0,0004
912;0,0005
913;0,0013
914;0,0005
915;0,0007
916;0,001
917;0,0009
918;0,0014
919;0,0018
920;0,0022
921;0,0024
922;0,0015
923;0,0016
924;0,0032
925;0,0028
926;0,0036
927;0,0021
928;0,0037
929;0,0022
930;0,0028
931;0,0028
932;0,0022
933;0,0014
934;0,0033
935;0,0025
936;0,0031
937;0,0017
938;0,0014
939;0,0016
940;0,0008
941;0,0019
942;0,0011
943;0,0009
944;0,0017
945;0,0018
946;0,0012
947;0,0018
948;0,0019
949;0,0002
950;0,0012
951;0,0009
952;0,0012
953;0,0011
954;0,001
955;0,0007
956;0,0016
957;0,0011
958;0,0006
959;0,0005
960;0,001
961;0,0013
962;0,001
963;0,0008
964;0,0012
965;0,001
966;0,0002
967;0,0011
968;0,0008
969;0,0011
970;0,0012
971;0,0007
972;0,0009
973;0,0002
974;0,0006
975;0,0008
976;0,0004
977;0,0013
978;0,0006
979;0,0008
980;0,0006
981;0,0003
982;0,0006
983;0,0006
984;0,0018
985;0,0007
986;0,0015
987;0,0022
988;0,0019
989;0,0022
990;0,0018
991;0,0018
992;0,0011
993;0,0011
994;0,0011
995;0,0009
996;0,0023
997;0,0023
998;0,0023
999;0,002
1000;0,0025
1001;0,0023
1002;0,0007
1003;0,0018
1004;0,0016
1005;0,0024
1006;0,0024
1007;0,0027
1008;0,0022
1009;0,0026
1010;0,0024
1011;0,0022
1012;0,0024
1013;0,0016
1014;0,0029
1015;0,0023
1016;0,0022
1017;0,0022
1018;0,0028
1019;0,0024
1020;0,0031
1021;0,0012
1022;0,0034
1023;0,0031
1024;0,0036
1025;0,0022
1026;0,0043
1027;0,0033
1028;0,0033
1029;0,004
1030;0,0039
1031;0,003
1032;0,0041
1033;0,0025
1034;0,004
1035;0,0034
1036;0,0017
1037;0,0026
1038;0,0036
1039;0,0043
1040;0,0025
1041;0,0026
1042;0,0038
1043;0,0031
1044;0,0039
1045;0,0035
1046;0,0036
1047;0,0044
1048;0,0039
1049;0,0037
1050;0,0038
1051;0,0056
1052;0,003
1053;0,0026
1054;0,0044
1055;0,0056
1056;0,0041
1057;0,0052
1058;0,0048
1059;0,0043
1060;0,0068
1061;0,004
1062;0,0048
1063;0,0023
1064;0,0057
1065;0,0046
1066;0,0055
1067;0,0061
1068;0,0038
1069;0,004
1070;0,0059
1071;0,0068
1072;0,0036
1073;0,0062
1074;0,0103
1075;0,0081
1076;0,0065
1077;0,0022
1078;0,0083
1079;0,0035
1080;0,0082
1081;0,0033
1082;0,0049
1083;0,0086
1084;0,004
1085;0,0044
1086;0,0045
1087;0,0105
1088;0,0069
1089;0,0094
1090;0,0046
1091;0,0073
1092;0,0026
1093;0,0074
1094;0,0105
1095;0,005
1096;0,0028
1097;0,0015
1098;0,006
1099;0,0077
1100;0,0085
