SP02_080725.csv;;Schick;30.07.2025 16:06:23;GENESYS 10S UV-Vis;2L9S114206;4.005
nm;A
190;1,4541
191;1,2972
192;1,1526
193;1,034
194;0,9417
195;0,8668
196;0,8186
197;0,7762
198;0,731
199;0,6971
200;0,6697
201;0,6449
202;0,6233
203;0,6024
204;0,5819
205;0,5652
206;0,5473
207;0,5307
208;0,5164
209;0,5023
210;0,4895
211;0,4759
212;0,4654
213;0,4546
214;0,4427
215;0,4323
216;0,4213
217;0,4119
218;0,4027
219;0,3932
220;0,3848
221;0,3772
222;0,3694
223;0,362
224;0,3552
225;0,348
226;0,3412
227;0,3361
228;0,3309
229;0,3247
230;0,3193
231;0,3124
232;0,3072
233;0,3027
234;0,2975
235;0,2934
236;0,2892
237;0,285
238;0,2808
239;0,2772
240;0,274
241;0,2715
242;0,2686
243;0,265
244;0,2623
245;0,2604
246;0,2586
247;0,2565
248;0,2541
249;0,2519
250;0,2501
251;0,2482
252;0,2464
253;0,2443
254;0,2419
255;0,2398
256;0,2379
257;0,2356
258;0,234
259;0,2324
260;0,2297
261;0,2275
262;0,225
263;0,2222
264;0,2199
265;0,2175
266;0,2144
267;0,2117
268;0,2086
269;0,2061
270;0,2041
271;0,2013
272;0,1983
273;0,1953
274;0,1924
275;0,1896
276;0,1869
277;0,1837
278;0,1805
279;0,1775
280;0,1749
281;0,172
282;0,1689
283;0,1661
284;0,1632
285;0,1605
286;0,1576
287;0,1543
288;0,1514
289;0,1488
290;0,1457
291;0,1429
292;0,1404
293;0,1379
294;0,1354
295;0,1331
296;0,1309
297;0,1286
298;0,1263
299;0,1239
300;0,1219
301;0,1199
302;0,1173
303;0,1154
304;0,1135
305;0,1113
306;0,1095
307;0,1078
308;0,106
309;0,1044
310;0,1028
311;0,1007
312;0,0992
313;0,0977
314;0,0962
315;0,0949
316;0,0933
317;0,0917
318;0,0903
319;0,0889
320;0,0871
321;0,0856
322;0,0841
323;0,083
324;0,0816
325;0,08
326;0,0786
327;0,0773
328;0,0759
329;0,0747
330;0,0735
331;0,0723
332;0,0714
333;0,0703
334;0,0692
335;0,068
336;0,067
337;0,0657
338;0,0649
339;0,0637
340;0,0627
341;0,0618
342;0,0607
343;0,0599
344;0,059
345;0,0582
346;0,0573
347;0,0564
348;0,0553
349;0,0544
350;0,0536
351;0,0528
352;0,0519
353;0,051
354;0,0505
355;0,0495
356;0,0488
357;0,0483
358;0,0475
359;0,0466
360;0,0459
361;0,0453
362;0,0447
363;0,0439
364;0,0429
365;0,0422
366;0,0419
367;0,0411
368;0,0402
369;0,0397
370;0,0388
371;0,0385
372;0,0379
373;0,0369
374;0,0364
375;0,0359
376;0,0353
377;0,0348
378;0,0344
379;0,0336
380;0,0332
381;0,0324
382;0,0321
383;0,0314
384;0,0308
385;0,0304
386;0,03
387;0,0295
388;0,0289
389;0,0285
390;0,0279
391;0,0276
392;0,0272
393;0,0266
394;0,0263
395;0,026
396;0,0252
397;0,0248
398;0,0247
399;0,024
400;0,0238
401;0,0233
402;0,0228
403;0,0228
404;0,0224
405;0,0219
406;0,0216
407;0,0214
408;0,0209
409;0,0204
410;0,0203
411;0,0196
412;0,0196
413;0,0192
414;0,0189
415;0,0186
416;0,0182
417;0,018
418;0,0178
419;0,0177
420;0,0173
421;0,0171
422;0,0169
423;0,0166
424;0,0163
425;0,0161
426;0,0157
427;0,0155
428;0,0152
429;0,015
430;0,0147
431;0,0143
432;0,0141
433;0,014
434;0,0137
435;0,0134
436;0,0135
437;0,0131
438;0,0127
439;0,0128
440;0,0127
441;0,0124
442;0,0121
443;0,0118
444;0,0118
445;0,0115
446;0,0113
447;0,0114
448;0,011
449;0,0109
450;0,0107
451;0,0104
452;0,0105
453;0,0105
454;0,0098
455;0,0098
456;0,0099
457;0,0097
458;0,0096
459;0,0095
460;0,0095
461;0,0094
462;0,0093
463;0,0091
464;0,0088
465;0,0088
466;0,0084
467;0,0086
468;0,0084
469;0,0081
470;0,0082
471;0,0082
472;0,0078
473;0,0078
474;0,0078
475;0,0077
476;0,0076
477;0,0074
478;0,0072
479;0,0073
480;0,0073
481;0,0072
482;0,007
483;0,0064
484;0,0068
485;0,0068
486;0,0067
487;0,0066
488;0,0065
489;0,0065
490;0,0062
491;0,0063
492;0,0061
493;0,0063
494;0,0063
495;0,006
496;0,0059
497;0,0059
498;0,0057
499;0,0056
500;0,0054
501;0,0052
502;0,0055
503;0,005
504;0,0054
505;0,0051
506;0,0053
507;0,0051
508;0,0047
509;0,0048
510;0,0048
511;0,0051
512;0,0048
513;0,0049
514;0,0048
515;0,0046
516;0,0042
517;0,0047
518;0,0045
519;0,0046
520;0,0045
521;0,0045
522;0,0044
523;0,0041
524;0,0042
525;0,0042
526;0,0042
527;0,0042
528;0,0042
529;0,0041
530;0,0041
531;0,004
532;0,0041
533;0,0042
534;0,0042
535;0,0035
536;0,0037
537;0,0034
538;0,0038
539;0,0039
540;0,0036
541;0,0037
542;0,0039
543;0,0036
544;0,0036
545;0,0036
546;0,0032
547;0,0032
548;0,0036
549;0,003
550;0,0034
551;0,0031
552;0,0031
553;0,0033
554;0,0032
555;0,0034
556;0,0037
557;0,0031
558;0,0035
559;0,0033
560;0,0031
561;0,0027
562;0,0034
563;0,0024
564;0,0028
565;0,0029
566;0,0025
567;0,0032
568;0,0029
569;0,0025
570;0,0028
571;0,0025
572;0,0026
573;0,0023
574;0,0023
575;0,0021
576;0,0029
577;0,0024
578;0,0023
579;0,0027
580;0,0027
581;0,0027
582;0,0024
583;0,0021
584;0,0021
585;0,0019
586;0,0021
587;0,0024
588;0,0026
589;0,0019
590;0,002
591;0,0021
592;0,0022
593;0,002
594;0,0019
595;0,0022
596;0,002
597;0,0017
598;0,0019
599;0,0019
600;0,0024
601;0,0022
602;0,0017
603;0,0018
604;0,0022
605;0,0016
606;0,0016
607;0,0016
608;0,0021
609;0,0014
610;0,0019
611;0,0013
612;0,0018
613;0,0018
614;0,0015
615;0,0015
616;0,0015
617;0,0017
618;0,0016
619;0,0015
620;0,0017
621;0,0013
622;0,0021
623;0,0015
624;0,0016
625;0,0018
626;0,0011
627;0,0015
628;0,0017
629;0,002
630;0,0014
631;0,0015
632;0,0012
633;0,0011
634;0,0016
635;0,0017
636;0,0015
637;0,002
638;0,001
639;0,0015
640;0,0007
641;0,0006
642;0,0013
643;0,0008
644;0,0017
645;0,0022
646;0,0017
647;0,0019
648;0,0014
649;0,0018
650;0,0016
651;0,0016
652;0,0015
653;0,0018
654;0,0017
655;0,0014
656;0,0014
657;0,0011
658;0,0018
659;0,002
660;0,0009
661;0,0013
662;0,0017
663;0,0009
664;0,0011
665;0,0005
666;0,0014
667;0,002
668;0,0003
669;0,001
670;0,0021
671;0,0012
672;0,001
673;0,0013
674;0,0014
675;0,0018
676;0,0014
677;0,0017
678;0,0014
679;0,0015
680;0,0014
681;0,0015
682;0,0011
683;0,0014
684;0,0009
685;0,0011
686;0,0012
687;0,0012
688;0,0015
689;0,0013
690;0,0012
691;0,0012
692;0,0011
693;0,0012
694;0,0019
695;0,001
696;0,0011
697;0,0012
698;0,0011
699;0,0011
700;0,0006
701;0,001
702;0,0016
703;0,0006
704;0,0011
705;0,0014
706;0,0007
707;0,001
708;0,0009
709;0,001
710;0,0016
711;0,0009
712;0,001
713;0,0006
714;0,0004
715;0,0007
716;0,001
717;0,0006
718;0,0011
719;0,0007
720;0,0015
721;0,0013
722;0,0015
723;0,0015
724;0,0002
725;0
726;0,0013
727;0,0008
728;0
729;0,0012
730;0,0005
731;0,0013
732;0,0012
733;0,0002
734;0,0008
735;0,0007
736;0,0002
737;0,0011
738;0,0007
739;0,001
740;0,0011
741;0,0013
742;0,0006
743;0,0016
744;0,0013
745;0,0005
746;0,0006
747;0,0003
748;0,001
749;0,0008
750;0,0004
751;0,0004
752;0,001
753;0,0008
754;0,0006
755;0,0016
756;0,0011
757;0,0008
758;0,0013
759;0,0002
760;0,0013
761;0,0006
762;0,0003
763;0,0009
764;0,0003
765;0,0003
766;0,0011
767;0,0004
768;0,0007
769;0,0009
770;0,0006
771;0,0005
772;-0,0003
773;0,0013
774;0,0002
775;0,0006
776;0,0007
777;0,0008
778;0,0017
779;0,0006
780;0,0003
781;0,0003
782;0
783;-0,0005
784;0,0002
785;0,0007
786;0,0004
787;0,0009
788;0,0011
789;0,0007
790;0,0006
791;-0,0004
792;0,0009
793;0,0004
794;0,0011
795;0,0003
796;0,0001
797;-0,0001
798;0,0007
799;0,0003
800;0,0006
801;0,0004
802;0,0005
803;0,0002
804;0,0004
805;-0,0003
806;-0,0003
807;0,0005
808;-0,0001
809;0,0007
810;0,0003
811;0,0009
812;0,0009
813;0,0017
814;0,0008
815;0
816;0,0016
817;-0,0003
818;0,0012
819;0,0007
820;0,0007
821;0,0004
822;0,001
823;0,0005
824;0,0007
825;0,0003
826;0,0008
827;0,0006
828;0,0006
829;0,0006
830;0,0011
831;0,0003
832;0,0004
833;0,0006
834;0,0008
835;0,0003
836;0,0006
837;0,0007
838;0,0001
839;-0,0005
840;0,0011
841;0,0005
842;-0,0002
843;0,0004
844;0,0012
845;0,0006
846;0,0005
847;0,0012
848;0,0005
849;-0,0004
850;-0,0003
851;0,0007
852;0,0013
853;0,0009
854;0,0003
855;-0,0004
856;-0,0001
857;0,002
858;0
859;0,0008
860;-0,0017
861;-0,001
862;-0,0004
863;-0,0005
864;0,0006
865;0
866;0,0014
867;-0,0002
868;-0,0003
869;0,0003
870;-0,0004
871;0
872;0,0011
873;0,0003
874;0,0003
875;0,0009
876;0,0009
877;0,0001
878;0,0002
879;-0,0004
880;0,0008
881;0,0007
882;0,0009
883;0,0008
884;0,0007
885;0,0007
886;0,0009
887;0,0017
888;0,0003
889;0,0005
890;0,0006
891;0,0006
892;0,0011
893;0,0014
894;0,0007
895;0,001
896;0,0008
897;0,0006
898;0,0008
899;0,0003
900;0,0006
901;0,0012
902;0,0003
903;0,0013
904;0,0002
905;0,0006
906;0,0005
907;0,001
908;0,0002
909;0,0004
910;0,001
911;0,0002
912;0,0004
913;0,0007
914;0,001
915;0,0009
916;0,0005
917;0,0006
918;0,0008
919;0,0008
920;0,0008
921;0,0011
922;0,0009
923;0,0013
924;0,0013
925;0,0008
926;0,002
927;0,002
928;0,0008
929;0,0015
930;0,0006
931;0,0012
932;0,0003
933;0,0007
934;0,0016
935;0,0007
936;0,0017
937;0,0001
938;0,0012
939;0,0008
940;0,0003
941;0,0006
942;0,0001
943;0,0006
944;0,0007
945;0,0009
946;0,0008
947;0,0006
948;0,0015
949;0,0006
950;0,0015
951;0,0002
952;0,0004
953;0,0006
954;0
955;-0,0001
956;0,0005
957;0,0003
958;-0,0003
959;-0,0001
960;-0,0001
961;-0,0002
962;0,0003
963;0,0005
964;0,0003
965;-0,0002
966;-0,001
967;0,0003
968;-0,0002
969;-0,0001
970;0,0004
971;-0,0003
972;-0,0002
973;-0,0007
974;-0,0005
975;0,0002
976;-0,0014
977;-0,0003
978;0
979;0,0002
980;0
981;0
982;0
983;0
984;0,0001
985;0,0001
986;0,0002
987;0,0009
988;0,0004
989;0,0011
990;0,0007
991;0,0006
992;0,0001
993;0,0002
994;0,0004
995;0,0003
996;0,0012
997;0,001
998;0,001
999;0,0002
1000;0,001
1001;0,0017
1002;-0,0007
1003;0,0001
1004;0,0003
1005;0,0015
1006;0,0004
1007;0,0021
1008;0,0016
1009;0,0012
1010;0,0006
1011;0,0009
1012;0,0009
1013;0,0007
1014;0,0015
1015;0,0014
1016;0,0007
1017;0,0013
1018;0,0015
1019;0,0014
1020;0,001
1021;0,0001
1022;0,0013
1023;0,001
1024;0,0015
1025;0,0013
1026;0,0022
1027;0,0018
1028;0,0025
1029;0,0018
1030;0,001
1031;0,001
1032;0,0023
1033;0,0008
1034;0,001
1035;0,0015
1036;-0,0016
1037;0,0001
1038;-0,0003
1039;0,0009
1040;-0,0003
1041;-0,0001
1042;0,0009
1043;0,0004
1044;0,0007
1045;0,0007
1046;0,0024
1047;0,0016
1048;0,0011
1049;0,0021
1050;0,0012
1051;0,0026
1052;0,0017
1053;0,0009
1054;0,0027
1055;0,0031
1056;0,0007
1057;0,0017
1058;0,0028
1059;0,0017
1060;0,0029
1061;0,0009
1062;0,0021
1063;0,0003
1064;0,0016
1065;0,0013
1066;0,0017
1067;0,0048
1068;0,0033
1069;0,0025
1070;-0,0005
1071;0,0024
1072;0,0016
1073;0,0022
1074;0,0025
1075;0,0034
1076;0,0037
1077;-0,0001
1078;0,0055
1079;0,004
1080;0,0038
1081;-0,0006
1082;0,0046
1083;0,0049
1084;0,0027
1085;0,0022
1086;0,0038
1087;0,0082
1088;0,0008
1089;0,0054
1090;0,0018
1091;0,0035
1092;0,0004
1093;0,0038
1094;0,0056
1095;0,0012
1096;0,0047
1097;-0,0035
1098;0,0021
1099;0,0046
1100;0,0074
